T (K) rhol (kg/m3) rhov (kg/m3) Psat (MPa)
530	386.22	110.15	2.1205
520	418.03	86.639	1.8433
510	442.79	70.167	1.5964
500	463.63	57.625	1.3761
490	481.88	47.659	1.18
480	498.29	39.536	1.0059
470	513.29	32.81	0.8518
460	527.18	27.185	0.71613
450	540.19	22.453	0.59733
440	552.46	18.461	0.49395
430	564.12	15.09	0.40462
420	575.25	12.249	0.32804
410	585.94	9.8608	0.26296
400	596.25	7.8628	0.2082
390	606.21	6.2017	0.16263
380	615.89	4.8315	0.12515
370	625.31	3.7117	0.094739


			
