T (K)	rhol (kg/m3)	rhov (kg/m3) Psat (MPa)
410	408.8	78	2.21
400	433.1	61.3	1.863
390	453.7	48.9	1.56
380	471.5	39.44	1.295
370	487.6	31.87	1.066
360	502.5	25.68	0.867
350	516.6	20.56	0.698
340	529.7	16.33	0.554
330	542.1	12.84	0.433
320	554	9.97	0.333
310	565.6	7.63	0.252
300	577	5.74	0.186
290	589	4.23	0.135
280	600	3.05	0.95

